##TITLE=$$ Begin of the data block
##JCAMP-DX=5.00 $$ ACD/SpecManager v 12.01
##SPECTROMETER/DATA SYSTEM=SPECTRUM ONE,CPU32 MAIN 00.02.5000 17-APRIL-2002 13:00:00
##DATE=12/01/16 11:31:52.00
##DATA TYPE=INFRARED SPECTRUM
##DATA CLASS=XYDATA
##ORIGIN=
##OWNER=
##NPOINTS=3351
##FIRSTX=650.00000000
##LASTX=4000.00000000
##MAXX=4000.00000000
##MINX=650.00000000
##MAXY=102.02744293
##MINY=72.59844208
##XFACTOR=1.0000000000
##YFACTOR=0.000001000000000
##FIRSTY=97.74077606
##DELTAX=1.00000000
##XUNITS=1/CM
##YUNITS=TRANSMITTANCE
##XYDATA=(X++(Y..Y))
  650       97740776       97748528       97807625       97844505       97787392
  655       97731270       97788872       97902672       97935158       97871582
  660       97801888       97773750       97775520       97801132       97837234
  665       97847099       97839531       97895493       98023682       98082016
  670       98052948       98054123       98109695       98145699       98105843
  675       98037888       98016418       98024223       98009651       97994751
  680       98021439       98049263       98016808       97954590       97937927
  685       97968224       97990959       97999916       98029388       98065964
  690       98063988       98026497       97989769       97960236       97932587
  695       97932732       97979027       98034431       98055923       98061317
  700       98086861       98109856       98083046       98020172       97978539
  705       97975540       97985626       98004860       98051895       98111160
  710       98136902       98115982       98081535       98068726       98091515
  715       98147835       98209183       98223328       98170212       98100342
  720       98078484       98104393       98133858       98155571       98188034
  725       98222610       98229301       98210037       98196556       98200523
  730       98210114       98227020       98260033       98288109       98276268
  735       98228455       98186142       98172249       98169800       98157974
  740       98140755       98136574       98159447       98208992       98264717
  745       98299133       98309814       98322083       98346008       98355057
  750       98327087       98281097       98247597       98227509       98209694
  755       98205490       98231262       98271538       98293045       98288780
  760       98278969       98276909       98282143       98294563       98309975
  765       98313850       98299873       98282127       98271301       98254906
  770       98221550       98189087       98184921       98208824       98236061
  775       98248810       98247322       98238998       98231964       98231354
  780       98228600       98201241       98135109       98042908       97955338
  785       97897652       97873619       97862343       97826202       97724701
  790       97524185       97206703       96774773       96203789       95341072
  795       93929985       91935478       89929108       88952415       89729439
  800       91969795       94579872       96579552       97715126       98264847
  805       98527473       98633362       98660606       98682434       98707764
  810       98707047       98697311       98726105       98789734       98839760
  815       98856598       98857086       98846909       98821121       98795502
  820       98788445       98788689       98785027       98800224       98842155
  825       98862709       98833481       98805817       98826065       98858017
  830       98850372       98817116       98795563       98779739       98749825
  835       98724228       98728157       98742775       98737617       98728683
  840       98752296       98798416       98820488       98802597       98773994
  845       98763451       98775185       98801720       98827927       98831894
  850       98810059       98789604       98792183       98802925       98798424
  855       98782593       98769768       98758644       98751434       98770821
  860       98823563       98871262       98873878       98842690       98816788
  865       98807716       98802452       98800919       98811676       98824249
  870       98821693       98809616       98802315       98795448       98782761
  875       98779648       98796097       98808990       98798096       98785370
  880       98800026       98829308       98842239       98838440       98834770
  885       98826073       98799438       98770615       98766548       98781670
  890       98787239       98778450       98780182       98807899       98848778
  895       98881058       98892967       98885918       98873634       98871597
  900       98877991       98878624       98877098       98894157       98924538
  905       98926666       98879288       98818382       98789314       98790535
  910       98797096       98811562       98849899       98896614       98918091
  915       98912209       98907738       98919312       98933861       98937614
  920       98929077       98909348       98884247       98871536       98882423
  925       98899963       98896782       98869308       98836349       98811935
  930       98798775       98799004       98809982       98816895       98808990
  935       98795174       98786491       98774864       98748825       98717674
  940       98696854       98678741       98639198       98563057       98442383
  945       98264671       98036263       97816017       97693985       97722427
  950       97877525       98087685       98286263       98441742       98555962
  955       98640106       98690300       98689903       98633682       98532234
  960       98383163       98152382       97798187       97309074       96717987
  965       96100311       95570267       95258438       95262161       95603676
  970       96224770       97001785       97769638       98377502       98761223
  975       98960052       99055443       99105156       99134438       99155945
  980       99173424       99181831       99182098       99183502       99183617
  985       99167648       99139069       99125633       99140038       99160583
  990       99168556       99176735       99197899       99211693       99192261
  995       99150101       99118668       99113968       99130463       99160072
 1000       99190338       99199646       99179886       99152367       99140823
 1005       99141693       99139046       99132286       99129562       99131180
 1010       99138916       99162689       99197540       99215775       99204590
 1015       99189354       99195824       99213303       99222488       99233177
 1020       99258392       99273087       99241417       99174789       99123466
 1025       99114876       99133156       99154892       99173210       99186890
 1030       99192749       99192177       99189072       99184471       99184837
 1035       99203484       99238449       99263962       99261185       99240723
 1040       99217392       99184242       99134972       99090652       99076180
 1045       99087143       99107162       99140312       99194466       99246872
 1050       99266167       99260651       99262268       99272591       99267891
 1055       99244881       99223221       99212540       99205177       99195694
 1060       99187042       99181000       99176437       99170853       99155037
 1065       99120094       99079430       99064514       99085243       99115501
 1070       99131912       99140419       99145996       99127998       99075882
 1075       99023682       99012863       99035606       99046715       99021049
 1080       98971451       98920853       98882790       98859970       98839119
 1085       98796570       98725571       98644226       98560265       98447006
 1090       98274460       98044754       97772285       97446526       97041245
 1095       96544617       95952759       95248573       94420135       93510162
 1100       92657127       92105461       92143059       92928711       94316307
 1105       95883911       97203423       98089966       98601074       98873123
 1110       99010666       99079460       99119209       99147560       99178276
 1115       99226875       99282318       99303314       99273628       99235466
 1120       99235901       99266060       99288078       99297119       99314682
 1125       99338890       99345718       99331558       99316978       99312675
 1130       99313080       99319801       99343323       99382889       99425484
 1135       99460602       99480263       99476273       99455360       99443901
 1140       99457932       99480873       99489326       99486580       99490295
 1145       99502541       99513504       99520386       99520775       99503540
 1150       99470337       99450699       99468628       99506378       99528198
 1155       99528481       99528282       99534363       99532867       99519501
 1160       99507790       99507721       99517738       99535721       99559059
 1165       99578323       99587952       99596077       99606956       99605148
 1170       99578484       99546364       99541290       99568413       99604736
 1175       99631126       99642578       99634636       99606125       99574173
 1180       99562813       99574402       99590050       99597786       99602715
 1185       99610649       99619453       99627251       99634254       99636322
 1190       99629021       99616867       99608086       99604164       99603310
 1195       99606750       99611778       99608948       99598709       99598816
 1200       99619270       99641876       99644058       99632675       99632187
 1205       99646873       99657455       99651039       99633575       99615700
 1210       99604263       99605103       99617455       99628563       99628181
 1215       99623055       99623932       99626976       99623718       99619774
 1220       99626244       99640350       99651421       99657646       99659821
 1225       99649345       99623245       99601654       99606560       99628571
 1230       99637672       99623711       99604866       99598618       99604904
 1235       99616173       99623779       99615402       99584839       99545830
 1240       99521736       99520500       99529533       99532547       99523056
 1245       99506859       99498825       99509529       99528267       99530800
 1250       99511917       99494980       99498474       99510857       99513458
 1255       99509613       99511017       99511856       99500954       99488159
 1260       99492973       99512688       99525818       99524879       99523949
 1265       99534958       99553482       99566429       99561775       99536514
 1270       99506416       99498497       99520157       99547882       99560669
 1275       99568016       99585678       99600983       99589211       99555046
 1280       99529312       99527695       99537048       99541878       99540810
 1285       99536217       99528511       99523918       99530624       99544563
 1290       99553162       99552841       99549683       99546814       99544975
 1295       99551010       99570061       99592903       99605156       99603943
 1300       99592232       99566200       99524124       99477936       99437874
 1305       99395416       99341698       99291603       99267151       99267082
 1310       99278984       99309425       99372482       99453186       99513229
 1315       99535156       99534309       99527840       99518059       99506714
 1320       99500061       99497063       99493301       99495010       99508270
 1325       99519463       99510010       99485077       99463654       99447029
 1330       99426094       99409393       99411705       99419899       99405144
 1335       99368324       99338173       99321526       99288948       99216164
 1340       99107101       98965164       98778694       98542900       98247116
 1345       97838280       97233101       96329063       94942940       92834755
 1350       90042328       87290939       85837135       86613373       89430443
 1355       93038116       96060165       97904831       98794662       99186005
 1360       99369751       99464935       99524628       99568253       99591583
 1365       99600708       99612404       99625793       99628281       99623009
 1370       99623833       99629639       99627945       99618073       99612602
 1375       99613388       99612572       99617035       99641312       99679436
 1380       99706406       99707535       99687752       99655167       99616791
 1385       99587303       99578941       99583649       99579048       99556328
 1390       99527115       99500717       99476997       99457756       99447479
 1395       99442978       99434593       99419495       99406700       99404152
 1400       99407890       99408348       99400398       99384491       99363663
 1405       99343033       99320129       99284660       99235138       99183624
 1410       99145515       99126579       99124245       99133095       99143234
 1415       99145897       99142288       99143402       99155174       99166161
 1420       99158218       99133591       99109024       99092804       99083977
 1425       99078438       99066071       99033981       98976334       98898331
 1430       98810143       98706047       98571999       98412727       98244705
 1435       98073212       97893448       97707245       97505455       97265541
 1440       96980835       96653481       96261047       95750381       95066238
 1445       94135010       92798843       90897804       88657600       86953537
 1450       86739349       88222977       90783630       93436165       95476845
 1455       96829277       97775978       98524323       99044289       99317749
 1460       99461143       99554054       99616119       99668625       99726852
 1465       99773766       99780502       99758537       99743889       99750420
 1470       99771286       99795731       99812950       99814560       99807693
 1475       99811768       99831551       99851021       99863052       99877357
 1480       99895576       99901260       99884697       99862747       99853737
 1485       99853508       99853035       99864212       99898247       99936668
 1490       99954697       99955475       99962471       99978653       99987991
 1495       99992630      100018158      100075264      100133469      100159256
 1500      100150932      100119408      100074287      100032204      100006340
 1505       99998863      100000999      100021210      100050186      100057587
 1510      100042877      100018707       99996521       99984261       99982758
 1515       99991074      100009705      100035393      100059425      100082108
 1520      100113007      100153229      100186562      100197533      100190842
 1525      100177597      100159935      100138489      100118401      100107208
 1530      100111145      100129692      100149597      100156479      100156425
 1535      100163551      100180489      100196953      100203896      100199928
 1540      100196632      100194260      100187157      100191589      100216141
 1545      100239372      100234009      100203194      100173820      100161606
 1550      100162300      100168945      100181389      100203621      100227776
 1555      100248230      100255981      100253151      100217712      100179916
 1560      100185600      100196022      100195946      100208031      100225174
 1565      100232002      100232986      100249428      100289467      100319641
 1570      100299889      100242233      100188164      100145027      100105408
 1575      100080338      100097664      100146622      100183113      100198479
 1580      100202660      100197983      100193115      100203316      100229134
 1585      100253349      100266922      100276901      100282196      100267288
 1590      100230301      100194695      100180748      100182556      100185226
 1595      100185570      100184807      100179451      100173569      100183151
 1600      100213799      100246819      100261650      100262260      100264526
 1605      100269669      100268173      100259827      100254395      100259987
 1610      100283958      100328812      100376793      100400482      100393700
 1615      100374664      100362259      100356766      100348297      100341515
 1620      100340767      100335243      100316299      100296783      100296066
 1625      100305534      100303421      100282494      100251030      100226601
 1630      100226143      100253929      100297775      100341232      100378372
 1635      100409317      100425705      100411682      100377167      100353027
 1640      100344666      100333992      100310249      100283485      100270355
 1645      100277031      100296387      100322556      100344681      100354973
 1650      100352081      100348679      100343887      100342575      100350555
 1655      100353554      100350044      100352440      100359070      100365654
 1660      100371658      100373222      100376808      100389771      100402840
 1665      100399979      100390694      100394379      100412201      100421997
 1670      100404022      100373840      100357033      100356270      100361824
 1675      100368195      100375191      100378578      100379303      100385773
 1680      100400734      100416176      100425545      100421181      100399635
 1685      100363510      100328995      100318184      100329201      100341049
 1690      100343460      100344864      100351784      100360626      100368362
 1695      100374886      100377327      100370598      100363708      100366447
 1700      100378571      100396072      100406723      100406822      100400673
 1705      100382965      100359299      100344986      100341537      100344193
 1710      100351265      100365402      100383675      100393219      100386230
 1715      100372765      100369278      100383636      100409081      100419128
 1720      100399376      100365852      100335030      100314369      100304207
 1725      100295952      100283417      100271660      100270035      100277176
 1730      100286644      100300362      100325577      100354095      100364906
 1735      100348099      100321953      100310921      100317032      100325790
 1740      100322227      100299026      100262489      100232925      100227882
 1745      100245491      100265503      100270653      100257889      100230049
 1750      100194656      100172165      100178711      100202393      100220810
 1755      100231956      100252296      100292259      100336006      100359566
 1760      100358597      100343636      100329277      100321564      100317177
 1765      100314552      100315559      100320930      100327858      100332413
 1770      100337189      100350342      100374931      100397301      100399132
 1775      100388206      100383614      100385071      100381645      100371735
 1780      100363274      100362152      100365211      100366058      100366951
 1785      100375107      100389999      100398888      100391273      100375137
 1790      100366661      100367897      100364441      100351059      100341621
 1795      100342072      100340111      100325790      100309822      100314735
 1800      100348793      100399147      100443161      100461411      100450233
 1805      100423752      100403099      100399536      100407295      100417023
 1810      100426933      100435310      100434769      100423698      100408096
 1815      100387962      100357864      100325333      100318184      100354782
 1820      100412575      100448257      100444633      100423058      100409332
 1825      100404709      100398071      100389893      100387444      100385414
 1830      100374535      100364418      100375282      100409111      100444260
 1835      100456825      100440666      100408424      100377411      100354439
 1840      100335258      100316826      100299522      100278328      100246094
 1845      100216286      100220970      100264572      100308144      100312813
 1850      100285133      100264198      100264656      100262817      100243530
 1855      100230270      100250603      100294540      100325233      100319702
 1860      100290443      100272705      100294456      100349884      100401741
 1865      100416275      100393105      100356560      100324089      100298126
 1870      100282768      100283524      100293579      100299484      100298233
 1875      100297951      100300293      100296707      100287071      100283981
 1880      100292061      100299004      100296707      100295563      100304176
 1885      100310463      100297798      100268181      100237175      100213226
 1890      100190521      100158958      100120575      100096344      100111565
 1895      100167656      100231407      100267929      100277847      100283974
 1900      100294945      100305962      100325775      100370644      100425301
 1905      100442238      100397614      100322807      100264076      100232475
 1910      100209808      100185989      100167023      100156563      100153297
 1915      100160759      100183846      100217285      100249489      100277283
 1920      100305603      100333664      100349976      100343788      100318367
 1925      100289925      100274155      100274689      100284439      100297050
 1930      100312691      100330933      100343559      100344116      100341652
 1935      100351166      100372910      100392349      100398804      100390587
 1940      100361053      100299202      100214249      100144188      100123535
 1945      100154907      100219078      100289253      100334679      100340485
 1950      100331680      100350914      100401131      100435219      100415192
 1955      100357307      100302437      100266685      100245338      100241386
 1960      100257011      100270638      100255890      100220299      100198540
 1965      100208649      100235138      100252625      100251183      100239853
 1970      100235725      100248993      100272644      100289261      100288872
 1975      100272720      100243660      100211029      100200729      100228760
 1980      100262939      100247002      100170151      100080940      100025635
 1985      100006630      100011269      100041740      100092789      100133057
 1990      100142624      100146881      100178093      100219475      100228355
 1995      100205116      100194588      100220520      100254669      100259903
 2000      100240311      100231628      100254089      100288071      100293869
 2005      100250984      100178085      100114456      100082924      100076920
 2010      100082397      100096977      100120445      100139343      100133133
 2015      100093887      100036507       99994316      100001953      100065781
 2020      100148773      100200401      100207634      100205620      100230331
 2025      100273743      100295837      100269020      100202507      100137306
 2030      100125862      100193565      100301331      100363037      100324425
 2035      100221909      100145226      100148163      100211525      100280968
 2040      100319298      100323807      100313553      100308815      100314941
 2045      100321518      100316818      100300110      100279060      100262436
 2050      100257797      100266129      100274658      100265938      100242096
 2055      100231590      100260513      100321404      100378357      100397331
 2060      100365242      100290558      100200516      100132736      100113876
 2065      100142769      100197495      100253525      100290543      100295547
 2070      100280663      100292336      100372490      100499855      100592171
 2075      100587517      100511208      100440361      100412910      100397552
 2080      100352280      100283653      100233376      100227180      100258766
 2085      100313110      100378265      100432343      100444679      100406517
 2090      100352318      100335114      100376488      100444016      100478424
 2095      100447266      100378502      100335693      100351227      100389168
 2100      100388069      100336151      100282700      100271500      100287704
 2105      100287727      100264946      100260429      100311485      100408577
 2110      100504128      100550339      100528549      100456413      100375191
 2115      100323196      100312378      100327072      100341095      100335159
 2120      100305901      100266678      100237892      100231155      100244156
 2125      100271400      100310219      100350647      100372009      100363930
 2130      100345016      100344566      100365845      100382072      100371941
 2135      100346291      100331985      100338264      100349503      100348450
 2140      100338150      100337723      100357918      100385307      100395432
 2145      100380478      100355812      100337395      100322174      100296913
 2150      100259422      100223228      100203300      100201477      100206314
 2155      100209785      100225952      100280815      100370895      100446632
 2160      100464996      100446091      100439636      100449898      100439926
 2165      100400879      100365051      100345413      100315910      100271683
 2170      100257278      100299393      100350494      100342232      100272659
 2175      100202248      100178345      100199173      100237267      100261124
 2180      100244759      100191467      100143692      100140869      100175026
 2185      100211411      100235359      100250145      100250259      100235054
 2190      100233559      100273056      100330757      100358215      100351395
 2195      100355286      100396561      100451935      100490456      100510452
 2200      100521278      100518059      100491249      100442917      100384132
 2205      100333176      100318199      100357185      100428841      100485550
 2210      100503456      100502106      100509758      100527870      100534515
 2215      100505539      100430367      100326469      100239601      100206802
 2220      100215172      100219376      100202721      100195328      100224724
 2225      100276596      100320915      100355232      100400993      100468185
 2230      100541794      100597610      100617462      100593262      100531029
 2235      100453568      100390381      100359215      100355377      100359367
 2240      100357719      100356903      100372047      100401772      100423332
 2245      100415817      100378990      100328209      100286201      100283035
 2250      100339088      100431526      100498878      100502365      100468521
 2255      100449516      100459320      100476486      100491486      100512169
 2260      100532524      100538200      100543037      100579651      100645088
 2265      100693077      100693054      100664268      100635719      100604240
 2270      100555054      100497765      100456688      100442032      100450378
 2275      100478439      100516701      100542191      100538651      100517906
 2280      100506935      100519577      100552513      100599472      100653275
 2285      100698555      100717323      100704933      100673386      100639221
 2290      100611816      100591606      100575172      100563210      100561684
 2295      100570435      100574333      100557671      100528770      100514374
 2300      100524452      100534561      100515488      100468254      100419296
 2305      100389175      100381081      100393852      100428284      100479698
 2310      100534264      100577812      100602982      100607124      100594063
 2315      100577301      100574646      100587761      100592690      100557137
 2320      100478516      100402618      100391838      100467575      100582878
 2325      100671036      100698891      100682289      100650757      100626297
 2330      100624893      100650551      100694611      100735260      100761215
 2335      100771774      100763855      100734337      100689270      100648468
 2340      100631470      100645081      100677338      100702164      100699249
 2345      100677208      100657257      100648788      100644104      100645920
 2350      100664597      100692703      100701683      100658936      100575310
 2355      100508148      100518257      100639175      100856277      101083855
 2360      101174637      101026932      100695671      100348366      100118065
 2365      100024986      100029663      100106644      100247734      100431725
 2370      100612579      100737671      100782059      100767220      100737389
 2375      100713860      100683792      100634056      100575569      100526764
 2380      100492805      100475273      100485733      100528557      100578339
 2385      100596336      100572601      100535591      100514313      100506035
 2390      100491295      100467331      100451508      100456779      100476730
 2395      100494263      100497116      100485405      100470451      100466774
 2400      100482079      100513641      100551613      100581650      100587677
 2405      100562088      100515579      100469124      100434242      100409302
 2410      100395554      100402542      100430023      100456451      100458687
 2415      100439560      100424393      100429649      100442871      100436790
 2420      100400208      100352287      100326172      100339638      100383614
 2425      100437256      100486412      100524033      100543648      100545273
 2430      100543221      100552368      100565414      100558243      100522987
 2435      100483208      100468643      100484421      100512596      100535469
 2440      100547379      100548859      100541969      100533691      100535896
 2445      100554810      100580284      100591080      100577713      100560150
 2450      100573936      100632072      100706131      100752586      100753090
 2455      100722099      100681992      100643555      100608315      100576149
 2460      100548607      100533607      100545944      100591461      100650230
 2465      100687775      100687233      100662315      100637093      100622414
 2470      100613304      100598106      100567230      100523773      100490112
 2475      100493637      100538147      100594711      100625908      100617203
 2480      100585785      100565414      100581375      100629349      100674637
 2485      100680260      100640450      100583344      100541428      100526001
 2490      100529045      100539856      100555412      100578125      100604675
 2495      100619270      100607430      100580467      100570953      100590912
 2500      100610649      100600677      100581497      100599579      100656494
 2505      100698586      100687477      100648582      100629974      100639610
 2510      100649338      100643707      100635574      100638023      100645576
 2515      100646996      100640320      100628426      100606979      100563110
 2520      100488777      100399384      100335747      100334702      100392097
 2525      100464836      100514549      100537811      100547386      100541016
 2530      100507278      100455368      100418404      100421913      100457977
 2535      100493439      100498528      100467010      100414833      100363632
 2540      100325233      100300545      100289200      100294250      100315681
 2545      100343414      100361000      100357979      100339951      100325073
 2550      100323982      100321434      100288116      100218689      100147491
 2555      100112213      100108818      100099640      100062363      100010216
 2560       99961967       99915886       99865799       99825241       99816788
 2565       99842598       99880653       99912041       99943817       99999710
 2570      100088951      100187805      100256897      100277962      100268204
 2575      100257462      100262062      100287201      100339798      100420540
 2580      100509758      100579651      100619949      100637337      100633408
 2585      100602608      100551796      100500725      100456711      100406822
 2590      100344284      100289719      100276031      100318237      100400337
 2595      100483658      100528984      100523872      100492210      100468262
 2600      100459846      100445679      100407425      100354416      100318092
 2605      100331207      100404808      100508865      100581039      100576744
 2610      100513123      100447639      100415604      100407570      100402710
 2615      100394730      100378578      100339844      100272804      100192284
 2620      100116837      100056000      100020569      100024147      100061707
 2625      100103271      100121964      100114670      100085335      100023804
 2630       99912476       99739334       99495857       99185188       98853264
 2635       98596893       98513336       98635506       98916428       99264191
 2640       99586731       99824081       99964142      100030319      100042732
 2645       99990395       99844734       99591858       99244797       98838547
 2650       98432030       98109978       97959274       98021996       98259468
 2655       98560913       98800674       98909805       98903046       98833908
 2660       98727028       98563431       98323250       98018776       97686447
 2665       97380363       97187729       97213936       97509033       98007385
 2670       98563255       99050781       99422356       99686256       99861916
 2675       99967262      100027016      100071823      100124985      100189400
 2680      100245827      100268723      100250603      100209747      100172363
 2685      100155098      100167694      100217339      100297050      100379440
 2690      100438438      100473923      100503403      100534492      100558838
 2695      100567993      100559990      100531906      100480743      100414459
 2700      100351662      100308960      100294746      100311493      100353500
 2705      100403664      100443657      100468979      100486969      100501526
 2710      100509155      100509659      100510551      100517403      100525276
 2715      100522881      100503319      100471558      100442207      100426292
 2720      100418488      100402573      100371635      100336380      100310318
 2725      100295349      100286469      100280861      100275230      100262703
 2730      100240318      100211761      100175697      100121742      100048042
 2735       99973267       99919273       99889442       99875275       99874680
 2740       99887512       99899094       99887833       99853271       99824249
 2745       99833641       99888222       99962006      100015884      100028938
 2750      100015594      100007088      100013367      100014328       99994522
 2755       99970673       99969971       99992455      100012917      100013603
 2760       99996994       99970329       99937042       99904579       99884415
 2765       99879616       99881737       99880394       99867149       99833412
 2770       99777519       99714294       99666061       99642639       99637466
 2775       99640015       99641571       99631851       99602989       99557259
 2780       99500732       99431412       99344887       99249397       99162048
 2785       99089226       99022652       98955467       98890717       98831863
 2790       98775215       98714119       98642189       98551453       98436043
 2795       98299210       98148689       97985893       97809624       97631325
 2800       97476753       97368980       97315804       97312546       97346107
 2805       97392632       97421173       97409248       97354431       97268082
 2810       97158295       97018654       96831230       96581352       96271812
 2815       95923317       95565025       95232002       94968979       94815948
 2820       94774727       94796341       94816292       94801315       94753639
 2825       94676277       94551041       94351791       94066299       93701309
 2830       93275383       92808548       92307739       91755112       91113243
 2835       90345787       89434860       88385117       87219002       85966957
 2840       84657776       83320168       81999535       80772850       79744911
 2845       79033852       78756554       79007278       79820747       81135643
 2850       82791321       84572189       86273445       87752617       88945274
 2855       89850060       90501755       90953003       91265984       91496704
 2860       91668327       91763756       91754730       91635536       91421654
 2865       91125900       90751282       90302307       89788895       89220963
 2870       88610092       87972290       87315033       86621635       85862221
 2875       85024742       84126060       83189735       82223724       81228119
 2880       80218887       79234169       78315720       77488869       76763191
 2885       76149521       75668747       75339508       75157600       75088982
 2890       75080681       75073792       75006866       74814919       74445503
 2895       73899376       73273636       72764442       72598442       72922852
 2900       73723785       74835854       76031799       77125580       78025826
 2905       78724388       79259552       79690109       80090500       80547829
 2910       81146172       81941360       82940620       84098450       85329666
 2915       86533951       87620842       88525734       89213219       89669403
 2920       89883415       89829399       89482361       88887993       88245789
 2925       87904755       88207817       89277649       90924629       92767815
 2930       94454437       95795509       96765068       97433693       97907814
 2935       98277863       98579979       98806030       98957893       99076073
 2940       99202499       99334656       99438248       99498665       99542244
 2945       99608833       99714539       99840340       99950386      100025185
 2950      100080765      100149605      100242058      100336800      100410416
 2955      100458595      100482262      100475182      100442917      100417175
 2960      100429962      100481216      100547585      100611710      100665436
 2965      100697815      100706253      100714783      100755821      100830940
 2970      100908562      100962105      100993156      101016205      101039734
 2975      101067986      101104530      101145340      101178505      101196899
 2980      101203377      101201302      101190353      101175743      101171776
 2985      101189316      101223129      101254272      101263550      101245483
 2990      101214722      101196251      101203430      101227608      101254929
 2995      101287033      101334976      101396194      101449913      101476959
 3000      101476013      101461014      101450882      101460022      101488289
 3005      101518234      101529854      101519363      101498665      101479630
 3010      101467880      101469536      101492111      101534775      101583542
 3015      101619629      101630585      101616554      101590401      101568764
 3020      101557007      101546631      101532143      101523811      101535217
 3025      101563866      101594009      101615372      101628990      101637199
 3030      101637886      101627548      101602280      101558266      101500488
 3035      101448494      101423172      101427307      101446159      101465172
 3040      101479134      101487892      101495071      101511490      101547882
 3045      101599899      101646622      101666763      101652802      101611092
 3050      101555817      101503891      101469742      101461227      101478737
 3055      101512352      101538940      101534210      101498657      101464073
 3060      101460152      101479431      101489853      101480560      101478554
 3065      101513588      101579102      101637161      101655876      101634071
 3070      101594734      101564110      101555779      101565865      101578514
 3075      101579369      101569504      101567421      101592171      101638741
 3080      101671616      101651001      101569748      101461678      101372749
 3085      101327827      101324883      101351234      101396965      101455109
 3090      101515945      101564774      101586197      101572945      101532127
 3095      101482574      101446472      101441338      101470856      101516129
 3100      101543137      101532349      101501381      101487770      101508713
 3105      101548546      101583549      101603333      101607117      101598343
 3110      101590836      101603844      101638603      101669960      101670784
 3115      101636101      101577667      101508682      101445549      101410759
 3120      101416206      101447487      101476746      101488380      101485138
 3125      101477005      101474472      101485504      101506088      101518440
 3130      101510429      101493851      101492615      101514908      101545731
 3135      101565727      101570183      101571121      101586700      101623611
 3140      101663239      101671425      101632118      101567986      101519783
 3145      101508919      101526283      101550583      101567146      101572968
 3150      101574989      101582977      101596924      101603699      101593178
 3155      101573997      101564468      101569679      101575035      101562431
 3160      101529228      101493011      101479820      101502411      101545906
 3165      101579262      101582977      101559441      101517021      101458649
 3170      101393143      101342995      101326752      101341568      101373482
 3175      101415588      101462830      101498665      101506264      101491821
 3180      101479912      101482529      101485207      101467743      101430222
 3185      101395302      101387589      101409401      101434181      101428886
 3190      101389137      101347908      101343025      101380936      101438805
 3195      101494255      101540001      101572762      101584053      101569214
 3200      101539162      101516846      101520508      101547966      101576035
 3205      101579010      101549492      101497818      101433830      101361732
 3210      101295799      101264122      101282486      101331924      101375145
 3215      101391701      101388214      101379410      101371887      101365608
 3220      101360680      101360252      101371231      101400398      101445030
 3225      101490082      101519371      101527283      101518044      101501305
 3230      101492027      101503059      101527740      101538788      101518105
 3235      101483063      101469894      101492279      101526779      101538811
 3240      101514221      101465385      101415535      101380928      101365097
 3245      101367622      101394791      101452911      101528160      101584221
 3250      101591820      101557472      101514938      101490547      101484436
 3255      101482910      101479759      101483322      101507668      101557770
 3260      101620895      101672791      101693382      101675964      101625664
 3265      101557877      101498024      101470024      101477631      101504730
 3270      101538239      101581734      101639458      101695816      101721329
 3275      101696442      101626076      101538368      101474274      101466316
 3280      101513588      101578026      101613365      101599541      101550865
 3285      101500488      101480591      101504875      101557838      101605270
 3290      101623184      101613937      101593376      101573891      101565277
 3295      101575523      101595917      101596230      101553757      101484802
 3300      101432083      101420975      101439430      101459534      101467941
 3305      101473618      101494263      101537170      101588593      101623528
 3310      101630119      101619705      101606392      101584732      101541130
 3315      101484978      101452721      101472969      101533676      101591331
 3320      101612091      101600609      101587502      101591927      101602875
 3325      101598244      101573540      101542389      101516220      101500305
 3330      101508041      101555733      101632690      101694069      101700890
 3335      101660248      101612434      101585350      101575371      101567131
 3340      101553574      101534134      101508087      101476768      101445496
 3345      101418854      101397789      101383217      101379326      101390945
 3350      101417442      101448181      101464943      101453781      101418205
 3355      101379341      101362579      101384636      101446991      101532211
 3360      101607704      101645905      101646172      101629089      101607506
 3365      101574219      101521889      101461929      101416397      101400169
 3370      101415657      101452538      101486023      101490723      101469391
 3375      101458534      101493294      101572571      101664543      101734367
 3380      101758453      101730171      101673332      101639076      101664268
 3385      101731331      101786255      101796669      101775284      101748741
 3390      101725960      101701927      101674088      101643707      101611572
 3395      101581169      101560188      101554474      101566071      101597488
 3400      101647415      101699921      101730873      101732887      101724304
 3405      101724304      101728424      101721596      101710312      101723755
 3410      101776077      101838516      101861816      101825378      101757019
 3415      101704628      101697891      101738396      101809479      101879295
 3420      101903275      101849396      101732941      101614464      101551857
 3425      101556503      101596260      101630104      101635429      101614304
 3430      101586929      101577805      101598198      101638321      101677567
 3435      101701538      101708153      101702324      101689987      101676254
 3440      101665443      101659714      101656555      101649002      101635231
 3445      101629784      101654762      101708595      101751160      101740623
 3450      101685219      101636635      101630463      101651436      101662804
 3455      101652084      101633858      101620384      101609169      101595329
 3460      101578903      101559708      101540367      101534935      101558578
 3465      101601112      101623154      101591537      101517479      101452133
 3470      101440079      101479225      101526787      101542328      101524033
 3475      101503418      101510223      101548088      101602089      101658073
 3480      101706276      101732758      101719940      101661491      101573662
 3485      101488846      101437584      101435158      101480057      101559166
 3490      101649712      101717133      101724922      101665146      101580002
 3495      101537239      101571068      101650909      101714432      101723938
 3500      101686615      101633392      101593819      101583153      101594971
 3505      101605377      101595650      101572548      101561485      101581886
 3510      101630325      101683601      101716362      101716408      101689079
 3515      101649551      101610374      101576607      101553764      101552986
 3520      101580444      101624496      101662392      101679352      101676720
 3525      101661110      101634712      101599442      101563805      101538795
 3530      101526146      101514465      101489410      101449356      101412201
 3535      101405602      101447655      101532555      101631721      101705757
 3540      101722183      101674004      101590965      101523720      101504311
 3545      101518188      101521339      101488533      101438492      101409958
 3550      101423424      101470680      101530762      101587517      101635498
 3555      101673820      101696640      101694107      101665909      101628151
 3560      101602432      101597794      101606171      101614113      101614708
 3565      101608719      101598763      101583046      101556000      101521324
 3570      101496780      101492157      101497269      101499352      101502388
 3575      101525406      101579880      101649895      101696297      101682884
 3580      101603279      101491531      101406219      101393951      101458771
 3585      101563782      101662430      101724838      101741089      101712051
 3590      101654106      101594116      101547478      101509285      101463654
 3595      101406761      101364487      101372566      101434944      101515617
 3600      101578583      101623100      101670898      101723854      101754181
 3605      101737343      101682152      101623405      101591431      101588531
 3610      101594589      101590004      101567192      101532471      101505173
 3615      101503143      101524422      101546936      101550308      101538795
 3620      101534462      101546303      101559578      101552597      101518806
 3625      101475655      101450264      101455757      101481575      101505638
 3630      101517715      101540993      101608994      101705368      101770386
 3635      101753151      101651443      101511574      101391273      101326851
 3640      101329056      101391014      101490623      101590553      101654045
 3645      101668877      101656113      101648895      101657822      101657104
 3650      101615189      101542702      101483040      101457176      101448219
 3655      101434525      101415474      101411621      101442940      101514107
 3660      101615273      101724869      101815231      101859261      101842880
 3665      101774414      101682892      101600983      101548050      101526726
 3670      101526939      101528732      101521812      101524910      101563789
 3675      101645180      101729805      101743279      101671692      101576607
 3680      101501778      101455788      101435394      101434837      101441406
 3685      101437393      101413620      101373344      101325066      101273872
 3690      101221840      101186188      101205589      101298470      101428879
 3695      101532234      101560623      101509407      101412964      101321480
 3700      101274384      101281654      101321152      101360397      101391602
 3705      101431923      101487312      101533592      101534996      101479881
 3710      101402611      101369614      101429207      101555954      101669121
 3715      101710869      101680489      101619530      101577560      101580513
 3720      101619225      101663841      101689430      101687424      101659805
 3725      101611832      101551468      101492592      101452995      101447945
 3730      101480827      101534348      101575928      101582718      101567291
 3735      101566116      101590820      101603638      101567474      101495895
 3740      101432678      101406807      101412781      101415825      101384987
 3745      101339432      101335983      101399673      101498924      101573090
 3750      101580711      101531898      101470757      101420914      101385941
 3755      101377777      101413757      101490845      101572662      101613258
 3760      101601791      101575584      101579475      101622292      101677269
 3765      101712563      101714401      101691467      101662407      101642250
 3770      101636475      101640488      101642365      101629929      101597115
 3775      101548141      101500015      101475616      101487862      101528580
 3780      101571533      101593803      101597092      101599327      101611504
 3785      101632950      101660370      101696358      101744110      101793121
 3790      101817322      101792969      101718941      101619232      101529137
 3795      101482544      101500618      101572182      101650414      101689369
 3800      101678169      101642822      101623184      101629662      101641548
 3805      101641876      101618256      101563911      101493874      101445320
 3810      101450165      101510185      101600624      101693832      101771881
 3815      101820999      101821747      101756981      101638985      101513641
 3820      101427185      101402000      101426407      101466805      101510155
 3825      101557655      101602646      101640205      101673744      101710297
 3830      101749397      101778175      101778275      101741867      101681305
 3835      101626900      101612144      101655777      101744385      101829018
 3840      101856621      101816292      101741287      101668709      101611015
 3845      101560913      101513153      101479309      101478058      101517433
 3850      101586357      101665543      101747429      101845718      101957436
 3855      102027443      102023766      101975555      101910675      101850105
 3860      101809319      101793266      101793861      101794037      101772964
 3865      101711685      101606659      101489456      101417374      101439941
 3870      101555305      101692894      101772163      101776840      101738480
 3875      101688232      101642670      101609512      101590752      101586914
 3880      101600914      101621574      101611511      101544182      101439011
 3885      101348434      101323326      101370590      101452431      101536224
 3890      101619949      101717064      101826027      101909958      101926727
 3895      101873634      101782387      101691437      101628403      101603706
 3900      101608475      101621300      101622475      101606270      101581169
 3905      101557732      101540146      101530746      101535660      101561417
 3910      101608437      101667503      101723610      101763268      101778770
 3915      101767143      101727325      101664093      101593155      101536819
 3920      101506165      101491760      101479271      101471161      101482758
 3925      101514465      101537224      101519348      101459595      101385345
 3930      101329071      101313484      101345535      101409569      101470108
 3935      101496826      101487732      101464958      101451721      101452095
 3940      101450592      101427994      101382797      101341820      101344376
 3945      101407608      101509048      101605904      101668785      101695419
 3950      101697083      101682884      101659325      101636169      101625298
 3955      101635277      101667480      101715965      101771385      101826607
 3960      101877434      101914772      101921730      101887321      101822617
 3965      101757851      101720978      101721611      101750076      101782135
 3970      101787025      101744896      101665848      101588821      101554619
 3975      101575775      101627640      101668152      101670555      101643082
 3980      101617668      101615906      101627258      101623650      101593834
 3985      101557213      101543266      101562256      101596542      101618454
 3990      101617943      101615395      101642052      101702789      101762489
 3995      101776520      101733597      101662148      101598816      101559196
 4000      101538452
##END=$$ End of the data block
